"Time [s]","Moving1.Position [deg]"
0,0
0.00135,0
0.0027,1.61413383658508E-13
0.00405,2.61292147204027E-12
0.0054,1.49999284804919E-11
0.00675,5.48274502121168E-11
0.0081,1.54361762771925E-10
0.00945,3.65749835963357E-10
0.0108,7.66117853360607E-10
0.01215,1.46248448501938E-09
0.0135,2.59637544290403E-09
0.01485,4.34806465621553E-09
0.0162,6.94039984715546E-09
0.01755,1.06421879100438E-08
0.0189,1.57711477065469E-08
0.02025,2.26964280137532E-08
0.0216,3.18407289242694E-08
0.02295,4.3682049907471E-08
0.0243,5.87550957265226E-08
0.02565,7.76524161802643E-08
0.027,1.0102527508014E-07
0.02835,1.2958436010063E-07
0.0297,1.64100350437425E-07
0.03105,2.05404469408609E-07
0.0324,2.54388997576142E-07
0.03375,3.12007873865017E-07
0.0351,3.79277421188105E-07
0.03645,4.57277162420925E-07
0.0378,5.47150949949492E-07
0.03915,6.50108582859251E-07
0.0405,7.67427882986746E-07
0.04185,9.00457423470415E-07
0.0432,1.05061987699532E-06
0.04455,1.21941617735415E-06
0.0459,1.40843063090543E-06
0.04725,1.61933704155144E-06
0.0486,1.85390593890286E-06
0.04995,2.11401311613721E-06
0.0513,2.40164948479457E-06
0.05265,2.71893256456599E-06
0.054,3.06811930407674E-06
0.05535,3.45162124958059E-06
0.0567,3.87202162417235E-06
0.0580499999999999,4.3320943403688E-06
0.0593999999999999,4.83482462337951E-06
0.0607499999999999,5.38343250866473E-06
0.0620999999999999,5.98139813688513E-06
0.0634499999999999,6.63249049151198E-06
0.0647999999999999,7.3407985725784E-06
0.0661499999999999,8.11076533658767E-06
0.0674999999999999,8.94722746189315E-06
0.06885,9.85545086738103E-06
0.0702,1.08411774803058E-05
0.07155,1.1910670627625E-05
0.0729,1.30707645816167E-05
0.07425,1.43289175725962E-05
0.0756,1.56932637693545E-05
0.07695,1.71726832794648E-05
0.0783,1.87768572519676E-05
0.07965,2.05163391429857E-05
0.081,2.24026219584732E-05
0.08235,2.44482111728055E-05
0.0837,2.66666864579312E-05
0.08505,2.90727930972893E-05
0.0864,3.16824939332604E-05
0.08775,3.45130838829386E-05
0.0891,3.75832608022479E-05
0.09045,4.09131886213382E-05
0.0918,4.45246145462099E-05
0.09315,4.84409325606728E-05
0.0945,5.26872695899267E-05
0.09585,5.72905777157079E-05
0.0972,6.2279702779272E-05
0.09855,6.76854274825303E-05
0.0999,7.3540573609985E-05
0.10125,7.98800513772882E-05
0.1026,8.67408896602902E-05
0.10395,9.41623989686703E-05
0.1053,0.00010218614359829
0.10665,0.000110855884657656
0.108,0.000120217733618765
0.10935,0.000130320096375
0.1107,0.000141213712450137
0.11205,0.0001529515897215
0.1134,0.000165589030437159
0.11475,0.000179183571414014
0.1161,0.000193794805282386
0.11745,0.000209484517603181
0.1188,0.000226316505969126
0.12015,0.000244356408444166
0.1215,0.000263671486326561
0.12285,0.000284330653586077
0.1242,0.000306403987540407
0.12555,0.000329962782933015
0.1269,0.000355079196135632
0.12825,0.000381825944819158
0.1296,0.000410276087461007
0.13095,0.000440502616596335
0.1323,0.000472578145567932
0.13365,0.000506574626870396
0.135,0.000542562834503653
0.13635,0.000580612038858707
0.1377,0.000620789586119829
0.13905,0.00066316037650618
0.1404,0.000707786526095899
0.14175,0.000754726844711126
0.1431,0.000804036409862212
0.14445,0.000855766097173402
0.1458,0.000909962171777959
0.14715,0.000966665740589181
0.1485,0.00102591239293827
0.14985,0.00108773173964603
0.1512,0.00115214702411189
0.15255,0.00121917477474267
0.1539,0.00128882449505986
0.15525,0.00136109837445201
0.1566,0.00143599106224012
0.15795,0.00151348947377393
0.1593,0.00159357266370359
0.16065,0.00167621175707923
0.162,0.00176136997922995
0.16335,0.0018490027829824
0.1647,0.00193905804461437
0.16605,0.00203147635689484
0.1674,0.00212619143748007
0.16875,0.00222313057859912
0.1701,0.00232221521297419
0.17145,0.00242336154042707
0.1728,0.00252648129658435
0.17415,0.00263148264503846
0.1755,0.00273827120291704
0.17685,0.00284675111123446
0.1782,0.00295682627488532
0.17955,0.00306840170437091
0.1809,0.00318138488482767
0.18225,0.00329568723713291
0.1836,0.00341122561706604
0.18495,0.00352792375553457
0.1863,0.00364571375976751
0.18765,0.00376453761860839
0.189,0.00388434866183313
0.19035,0.00400511312764426
0.1917,0.00412681156899689
0.19305,0.00424944018982174
0.1944,0.00437301203823635
0.19575,0.004497558184862
0.1971,0.00462312855493532
0.19845,0.00474979275868487
0.1998,0.0048776405822705
0.20115,0.00500678222738188
0.2025,0.00513734823004282
0.20385,0.00526948916481754
0.2052,0.00540337509854192
0.20655,0.00553919478176714
0.2079,0.00567715462211386
0.209249999999999,0.0058174772536668
0.210599999999999,0.00596039991636375
0.211949999999999,0.00610617245747699
0.213299999999999,0.00625505502742996
0.214649999999999,0.0064073154246489
0.215999999999999,0.00656322626083856
0.217349999999999,0.00672306196274531
0.218699999999999,0.00688709554115853
0.220049999999999,0.00705559522619753
0.221399999999999,0.00722882102001651
0.222749999999999,0.00740702098865017
0.224099999999999,0.00759042753215216
0.225449999999999,0.00777925371818263
0.226799999999999,0.00797368967224753
0.228149999999999,0.00817389923811158
0.229499999999999,0.00838001689848697
0.230849999999999,0.0085921451716307
0.232199999999999,0.00881035243082172
0.233549999999999,0.00903467119682541
0.234899999999999,0.00926509689891626
0.236249999999999,0.00950158717456503
0.237599999999999,0.00974406177483872
0.238949999999999,0.00999240300583924
0.240299999999999,0.0102464566986314
0.241649999999999,0.0105060339831398
0.242999999999999,0.0107709140339607
0.244349999999999,0.0110408474413654
0.245699999999999,0.0113155603229108
0.247049999999999,0.011594758615393
0.248399999999999,0.0118781329131524
0.249749999999999,0.0121653642476519
0.251099999999999,0.0124561298769335
0.252449999999999,0.0127501090990137
0.253799999999999,0.0130469900084035
0.255149999999999,0.0133464764914989
0.256499999999999,0.0136482953487404
0.257849999999999,0.0139522032979958
0.259199999999999,0.0142579931572524
0.260549999999999,0.0145654996244467
0.261899999999999,0.0148746046692639
0.263249999999999,0.0151852422312795
0.264599999999999,0.0154974019355404
0.265949999999999,0.0158111318758258
0.267299999999999,0.0161265401651252
0.268649999999999,0.0164437951312362
0.269999999999999,0.0167631243224442
0.271349999999999,0.0170848117194234
0.272699999999999,0.017409193722491
0.27405,0.0177366541963559
0.2754,0.0180676185640993
0.27675,0.018402546446001
0.2781,0.018741923147803
0.27945,0.019086250234603
0.2808,0.01943603554543
0.28215,0.0197917825927714
0.2835,0.020153979595891
0.28485,0.0205230880261712
0.2862,0.0208995314333104
0.28755,0.021283684692872
0.2889,0.0216758636916851
0.29025,0.0220763166559223
0.2916,0.0224852168976758
0.29295,0.0229026577667361
0.2943,0.0233286491519533
0.29565,0.0237631160844196
0.297,0.0242058995406468
0.29835,0.0246567591507976
0.2997,0.0251153784923461
0.30105,0.0255813716300719
0.3024,0.026054292175355
0.30375,0.0265336451733205
0.3051,0.0270189006719282
0.30645,0.0275095074305181
0.3078,0.0280049081916324
0.30915,0.0285045554614839
0.3105,0.0290079266977554
0.31185,0.0295145412538988
0.3132,0.0300239770253819
0.31455,0.0305358849489566
0.3159,0.0310500016930012
0.31725,0.031566160704868
0.3186,0.032084300838707
0.31995,0.0326044716258894
0.3213,0.0331268353633574
0.32265,0.0336516659757232
0.324,0.0341793435984648
0.32535,0.034710344816026
0.3267,0.0352452311894283
0.32805,0.0357846353799348
0.3294,0.0363292435549348
0.33075,0.0368797760433916
0.3321,0.0374369662697348
0.33345,0.0380015382127025
0.3348,0.0385741834630845
0.33615,0.0391555383751046
0.3375,0.0397461617385804
0.33885,0.0403465144721692
0.3402,0.040956942330701
0.34155,0.0415776627488097
0.3429,0.042208756241766
0.34425,0.0428501621770796
0.3456,0.0435016789638277
0.34695,0.044162969671853
0.3483,0.0448335727289403
0.349650000000001,0.0455129168575389
0.351000000000001,0.0462003395195122
0.352350000000001,0.0468951111381635
0.353700000000001,0.0475964630326915
0.355050000000001,0.0483036140475306
0.356400000000001,0.0490158004531943
0.357750000000001,0.0497323039753638
0.359100000000001,0.0504524813701546
0.360450000000001,0.051175793416078
0.361800000000001,0.0519018284000152
0.363150000000001,0.0526303219066536
0.364500000000001,0.0533611721710534
0.365850000000001,0.0540944484960651
0.367200000000001,0.0548303929406924
0.368550000000001,0.0555694153868572
0.369900000000001,0.0563120790899696
0.371250000000001,0.0570590807416341
0.372600000000001,0.0578112274358465
0.373950000000001,0.0585694063645025
0.375300000000001,0.059334551687929
0.376650000000001,0.0601076077840961
0.378000000000001,0.0608894908651014
0.379350000000001,0.0616810509386637
0.380700000000001,0.0624830341555419
0.382050000000001,0.0632960486807213
0.383400000000001,0.0641205357672379
0.384750000000001,0.0649567496962225
0.386100000000001,0.0658047443559063
0.387450000000001,0.066664369122236
0.388800000000001,0.0675352736915693
0.390150000000001,0.0684169216222458
0.391500000000001,0.0693086138839075
0.392850000000001,0.0702095187036527
0.394200000000001,0.0711187082332063
0.395550000000001,0.0720352036684431
0.396900000000001,0.0729580189145662
0.398250000000001,0.0738862065550729
0.399600000000001,0.0748189024971572
0.400950000000001,0.0757553712537556
0.402300000000001,0.0766950460652583
0.403650000000001,0.0776375597128577
0.405000000000001,0.0785827683804956
0.406350000000001,0.0795307643927651
0.407700000000001,0.0804818769014211
0.409050000000001,0.0814366603012225
0.410400000000001,0.0823958676007111
0.411750000000001,0.0833604181712751
0.413100000000001,0.0843313561853046
0.414450000000001,0.0853098015276935
0.415800000000001,0.0862968957123749
0.417150000000001,0.0872937447295555
0.418500000000001,0.088301362757337
0.419850000000001,0.0893206170861373
0.421200000000001,0.0903521788048484
0.422550000000001,0.09139648593463
0.423900000000001,0.0924537179174685
0.425250000000002,0.093523783899047
0.426600000000002,0.0946063254431385
0.427950000000002,0.0957007335401691
0.429300000000002,0.096806181166912
0.430650000000002,0.0979216671092683
0.432000000000002,0.0990460696120239
0.433350000000002,0.100178211540736
0.434700000000002,0.101316924030752
0.436050000000002,0.102461111534331
0.437400000000002,0.103609815287522
0.438750000000002,0.104762274686335
0.440100000000002,0.105917975328499
0.441450000000002,0.107076684486093
0.442800000000002,0.1082384722476
0.444150000000002,0.109403713151865
0.445500000000002,0.110573068905526
0.446850000000002,0.111747449440057
0.448200000000002,0.112927965862567
0.449550000000002,0.114115868181639
0.450900000000002,0.115312475200914
0.452250000000002,0.116519096294708
0.453600000000002,0.117736954004234
0.454950000000002,0.118967106993861
0.456300000000002,0.120210379740279
0.457650000000002,0.12146730900314
0.459000000000002,0.122738108571579
0.460350000000002,0.124022652863569
0.461700000000002,0.125320482277329
0.463050000000002,0.126630830628625
0.464400000000002,0.127952673827851
0.465750000000002,0.129284793820536
0.467100000000002,0.130625857638447
0.468450000000002,0.131974506167981
0.469800000000002,0.133329440538688
0.471150000000002,0.13468950711978
0.472500000000002,0.136053780502588
0.473850000000002,0.137421631508737
0.475200000000002,0.138792775045413
0.476550000000002,0.140167298328009
0.477900000000002,0.141545661577103
0.479250000000002,0.142928669988963
0.480600000000002,0.144317418878485
0.481950000000002,0.1457132264431
0.483300000000002,0.147117547063464
0.484650000000002,0.148531873959969
0.486000000000002,0.149957637126942
0.487350000000002,0.151396102337514
0.488700000000002,0.152848274941129
0.490050000000002,0.154314824858926
0.491400000000002,0.155796036849812
0.492750000000002,0.157291786556281
0.494100000000002,0.158801546707264
0.495450000000002,0.160324424110862
0.496800000000002,0.161859225137363
0.498150000000002,0.163404541536548
0.499500000000002,0.164958857067884
0.500850000000002,0.166520661109157
0.502200000000002,0.168088558621364
0.503550000000002,0.169661377414828
0.504900000000002,0.17123826614783
0.506250000000002,0.172818764589051
0.507600000000002,0.174402848588829
0.508950000000002,0.175990939912335
0.510300000000002,0.177583877979585
0.511650000000002,0.179182853031094
0.513000000000002,0.180789321827176
0.514350000000002,0.182404898688357
0.515700000000002,0.184031231726746
0.517050000000002,0.185669875321342
0.518400000000002,0.187322162968365
0.519750000000002,0.188989092481438
0.521100000000002,0.190671243592132
0.522450000000002,0.19236872780233
0.523800000000002,0.194081175555811
0.525150000000002,0.195807765017373
0.526500000000002,0.197547288801889
0.527850000000002,0.199298254667511
0.529200000000002,0.201059007718024
0.530550000000002,0.202827874863279
0.531900000000002,0.204603300034201
0.533250000000002,0.206383976793758
0.534600000000002,0.208168969723238
0.535950000000001,0.209957800753946
0.537300000000001,0.211750500945802
0.538650000000001,0.213547616627349
0.540000000000001,0.215350163284143
0.541350000000001,0.21715953716674
0.542700000000001,0.218977402018034
0.544050000000001,0.220805548686767
0.545400000000001,0.222645739767953
0.546750000000001,0.224499554737427
0.548100000000001,0.226368239324176
0.549450000000001,0.228252589298583
0.550800000000001,0.230152876617273
0.552150000000001,0.232068820081838
0.553500000000001,0.233999609309767
0.554850000000001,0.235943977870344
0.556200000000001,0.237900321348771
0.557550000000001,0.239866843520132
0.558900000000001,0.241841730568637
0.560250000000001,0.243823313848414
0.561600000000001,0.245810228241129
0.562950000000001,0.247801552695707
0.564300000000001,0.249796904729019
0.565650000000001,0.251796489100939
0.567000000000001,0.253801086163009
0.568350000000001,0.255811972525406
0.569700000000001,0.257830803869389
0.571050000000001,0.259859462647565
0.5724,0.261899878756722
0.57375,0.263953844703671
0.5751,0.266022831325901
0.57645,0.268107834119005
0.5778,0.270209273144886
0.57915,0.272326945809259
0.5805,0.274460045263757
0.58185,0.276607240707607
0.5832,0.278766814071685
0.58455,0.280936833325457
0.5859,0.283115357671259
0.58725,0.285300629095001
0.5886,0.287491256978385
0.58995,0.289686375154897
0.5913,0.291885740598524
0.59265,0.294089772192707
0.594,0.296299510500571
0.59535,0.298516502351978
0.5967,0.30074264740646
0.59805,0.302980003004085
0.5994,0.305230568062334
0.60075,0.307496066725733
0.6021,0.309777749212052
0.60345,0.312076254503964
0.6048,0.314391536048788
0.60615,0.316722863826058
0.607499999999999,0.319068903557591
0.608849999999999,0.321427866273787
0.610199999999999,0.323797705766367
0.611549999999999,0.326176355115748
0.612899999999999,0.328561949913125
0.614249999999999,0.330953040545864
0.615599999999999,0.333348770222133
0.616949999999999,0.335748981898132
0.618299999999999,0.338154250192497
0.619649999999999,0.340565814647796
0.620999999999999,0.342985434034946
0.622349999999999,0.345415195451528
0.623699999999999,0.347857278005164
0.625049999999999,0.350313703980892
0.626399999999999,0.352786091590183
0.627749999999999,0.355275456193386
0.629099999999999,0.357782088971313
0.630449999999999,0.36030551698951
0.631799999999999,0.362844558220569
0.633149999999999,0.36539746416269
0.634499999999999,0.367962130008985
0.635849999999999,0.370536355797194
0.637199999999999,0.373118109117815
0.638549999999999,0.375705768150894
0.639899999999999,0.378298335842221
0.641249999999999,0.38089557250584
0.642599999999999,0.383498040688451
0.643949999999998,0.386107034445235
0.645299999999998,0.388724413542395
0.646649999999998,0.391352384943503
0.647999999999998,0.39399323215957
0.649349999999998,0.396649032708375
0.650699999999998,0.399321380907302
0.652049999999998,0.402011179997445
0.653399999999998,0.404718523923998
0.654749999999998,0.407442680910051
0.656099999999998,0.41018218697216
0.657449999999998,0.412935037259041
0.658799999999998,0.415698946920229
0.660149999999998,0.418471656303304
0.661499999999998,0.421251215017997
0.662849999999998,0.424036245529919
0.664199999999998,0.426826139773015
0.665549999999998,0.429621153581549
0.666899999999998,0.432422381473025
0.668249999999998,0.435231597847168
0.669599999999998,0.438051031325021
0.670949999999998,0.44088307442823
0.672299999999998,0.443729966376396
0.673649999999998,0.446593477831556
0.674999999999998,0.449474660234781
0.676349999999998,0.4523737004153
0.677699999999998,0.455289889773826
0.679049999999997,0.458221721531202
0.680399999999997,0.461167101712136
0.681749999999997,0.464123642029944
0.683099999999997,0.467089000129144
0.684449999999997,0.4700611953298
0.685799999999997,0.473038896621027
0.687149999999997,0.476021626357303
0.688499999999997,0.479009843628716
0.689849999999997,0.482004881082692
0.691199999999997,0.485008743248786
0.692549999999997,0.488023835406721
0.693899999999997,0.491052624672727
0.695249999999997,0.494097286569283
0.696599999999997,0.497159370987575
0.697949999999997,0.5002395744048
0.699299999999997,0.503337633025428
0.700649999999997,0.506452358587831
0.701999999999997,0.509581815526473
0.703349999999997,0.512723609034486
0.704699999999997,0.51587524941636
0.706049999999997,0.519034515545262
0.707399999999997,0.522199784794714
0.708749999999997,0.525370296161388
0.710099999999997,0.528546280213586
0.711449999999997,0.531728933755978
0.712799999999997,0.534920220614509
0.714149999999997,0.538122586751543
0.715499999999996,0.541338595695617
0.716849999999996,0.544570539045781
0.718199999999996,0.547820063903269
0.719549999999996,0.551087914751597
0.720899999999996,0.55437381314789
0.722249999999996,0.557676497998423
0.723599999999996,0.560993925876931
0.724949999999996,0.564323594511439
0.726299999999996,0.567662946998344
0.727649999999996,0.571009765475512
0.728999999999996,0.57436252559121
0.730349999999996,0.577720659914469
0.731699999999996,0.581084665895937
0.733049999999996,0.584456025698367
0.734399999999996,0.587836953342052
0.735749999999996,0.591230055397927
0.737099999999996,0.59463791511606
0.738449999999996,0.59806266714224
0.739799999999996,0.601505629676011
0.741149999999996,0.604967088372355
0.742499999999996,0.608446243014152
0.743849999999996,0.611941340707278
0.745199999999996,0.615449970573902
0.746549999999996,0.618969471932417
0.747899999999996,0.622497380265148
0.749249999999996,0.626031828264848
0.750599999999995,0.629571880966881
0.751949999999995,0.633117711630086
0.753299999999995,0.636670583165222
0.754649999999995,0.640232610343467
0.755999999999995,0.643806414878527
0.757349999999995,0.647394686442189
0.758699999999995,0.650999720017029
0.760049999999995,0.654622997685019
0.761399999999995,0.658264932051418
0.762749999999995,0.66192478813321
0.764099999999995,0.665600812127324
0.765449999999995,0.669290543096796
0.766799999999995,0.672991252129181
0.768149999999995,0.676700424854334
0.769499999999995,0.680416193045058
0.770849999999995,0.68413768852711
0.772199999999995,0.687865217466103
0.773549999999995,0.691600211384718
0.774899999999995,0.695344946927867
0.776249999999995,0.699102156160679
0.777599999999995,0.702874542019643
0.778949999999995,0.706664280999392
0.780299999999995,0.710472608698492
0.781649999999995,0.71429959449913
0.782999999999995,0.718144122951274
0.784349999999995,0.722004102244626
0.785699999999995,0.725876854811104
0.787049999999994,0.729759623353851
0.788399999999994,0.733650070542822
0.789749999999994,0.737546716294865
0.791099999999994,0.741449239782337
0.792449999999994,0.745358558640892
0.793799999999994,0.749276635645243
0.795149999999994,0.753206108035787
0.796499999999994,0.75714980607567
0.797849999999994,0.761110217696887
0.799199999999994,0.765088989659871
0.800549999999994,0.76908661106147
0.801899999999994,0.773102313366953
0.803249999999994,0.777134219559059
0.804599999999994,0.781179713119281
0.805949999999994,0.785235954579373
0.807299999999994,0.789300430082224
0.808649999999994,0.793371432859924
0.809999999999994,0.797448424573584
0.811349999999994,0.801532162588876
0.812699999999994,0.805624534831556
0.814049999999994,0.809728176755409
0.815399999999994,0.813845969598363
0.816749999999994,0.817980470216251
0.818099999999994,0.82213337531713
